6.749918e+002,1.038596e+005
6.788489e+002,1.018261e+005
6.827060e+002,1.137481e+005
6.865631e+002,1.187514e+005
6.904202e+002,1.174361e+005
6.942773e+002,1.095208e+005
6.981344e+002,1.087275e+005
7.019915e+002,1.159533e+005
7.058486e+002,1.163070e+005
7.097057e+002,1.116588e+005
7.135628e+002,1.086881e+005
7.174199e+002,1.094471e+005
7.212770e+002,1.118475e+005
7.251341e+002,1.159068e+005
7.289911e+002,1.114357e+005
7.328483e+002,1.038443e+005
7.367054e+002,1.024629e+005
7.405624e+002,1.060351e+005
7.444196e+002,1.046796e+005
7.482767e+002,1.048151e+005
7.521337e+002,1.070532e+005
7.559908e+002,1.060959e+005
7.598480e+002,1.070144e+005
7.637050e+002,1.109884e+005
7.675621e+002,1.063184e+005
7.714193e+002,1.009561e+005
7.752763e+002,1.019403e+005
7.791334e+002,1.036961e+005
7.829905e+002,1.054112e+005
7.868476e+002,1.084172e+005
7.907047e+002,1.118431e+005
7.945618e+002,1.143570e+005
7.984189e+002,1.096533e+005
8.022760e+002,1.063947e+005
8.061331e+002,1.105975e+005
8.099902e+002,1.225519e+005
8.138473e+002,1.294621e+005
8.177043e+002,1.258202e+005
8.215615e+002,1.207673e+005
8.254186e+002,1.211327e+005
8.292756e+002,1.286659e+005
8.331328e+002,1.308219e+005
8.369899e+002,1.254803e+005
8.408469e+002,1.289492e+005
8.447040e+002,1.332367e+005
8.485612e+002,1.265034e+005
8.524182e+002,1.223007e+005
8.562753e+002,1.202668e+005
8.601324e+002,1.227807e+005
8.639895e+002,1.232203e+005
8.678466e+002,1.218191e+005
8.717037e+002,1.167365e+005
8.755608e+002,1.163500e+005
8.794179e+002,1.140412e+005
8.832750e+002,1.060671e+005
8.871321e+002,1.053975e+005
8.909892e+002,1.106964e+005
8.948463e+002,1.071341e+005
8.987034e+002,1.001104e+005
9.025605e+002,9.618801e+004
9.064176e+002,9.657155e+004
9.102747e+002,9.649593e+004
9.141318e+002,9.517377e+004
9.179889e+002,9.279371e+004
9.218459e+002,9.232096e+004
9.257031e+002,9.426385e+004
9.295602e+002,9.633344e+004
9.334172e+002,9.334742e+004
9.372744e+002,9.089465e+004
9.411315e+002,9.177743e+004
9.449885e+002,9.133537e+004
9.488456e+002,8.863230e+004
9.527028e+002,8.679218e+004
9.565598e+002,8.731482e+004
9.604169e+002,8.929798e+004
9.642740e+002,8.970211e+004
9.681311e+002,8.927764e+004
9.719882e+002,8.734142e+004
9.758453e+002,8.730380e+004
9.797024e+002,8.696804e+004
9.835595e+002,8.540523e+004
9.874166e+002,8.793020e+004
9.912737e+002,9.009525e+004
9.951308e+002,8.732555e+004
9.989879e+002,8.542966e+004
1.002845e+003,8.429291e+004
1.006702e+003,8.393559e+004
1.010559e+003,8.314060e+004
1.014416e+003,7.993735e+004
1.018273e+003,7.730782e+004
1.022130e+003,7.734000e+004
1.025988e+003,7.557218e+004
1.029845e+003,7.137312e+004
1.033702e+003,6.932566e+004
1.037559e+003,6.865381e+004
1.041416e+003,6.898606e+004
1.045273e+003,7.116115e+004
1.049130e+003,6.985922e+004
1.052987e+003,6.895160e+004
1.056844e+003,6.970350e+004
1.060701e+003,7.033926e+004
1.064559e+003,7.018620e+004
1.068416e+003,6.916975e+004
1.072273e+003,6.968260e+004
1.076130e+003,7.197795e+004
1.079987e+003,7.292836e+004
1.083844e+003,7.234621e+004
1.087701e+003,7.371410e+004
1.091558e+003,7.592086e+004
1.095415e+003,7.746633e+004
1.099272e+003,7.994618e+004
1.103130e+003,8.224525e+004
1.106987e+003,8.570719e+004
1.110844e+003,9.046299e+004
1.114701e+003,9.245633e+004
1.118558e+003,8.970345e+004
1.122415e+003,9.101068e+004
1.126272e+003,9.642766e+004
1.130129e+003,9.885121e+004
1.133986e+003,1.009908e+005
1.137843e+003,1.057406e+005
1.141700e+003,1.082064e+005
1.145558e+003,1.089695e+005
1.149415e+003,1.092277e+005
1.153272e+003,1.099873e+005
1.157129e+003,1.116999e+005
1.160986e+003,1.183345e+005
1.164843e+003,1.234928e+005
1.168700e+003,1.212257e+005
1.172557e+003,1.224397e+005
1.176414e+003,1.279851e+005
1.180271e+003,1.330932e+005
1.184129e+003,1.350904e+005
1.187986e+003,1.382708e+005
1.191843e+003,1.444836e+005
1.195700e+003,1.543387e+005
1.199557e+003,1.605315e+005
1.203414e+003,1.565981e+005
1.207271e+003,1.629454e+005
1.211128e+003,1.853862e+005
1.214985e+003,2.077613e+005
1.218842e+003,2.054040e+005
1.222699e+003,2.155919e+005
1.226557e+003,2.394260e+005
1.230414e+003,2.619580e+005
1.234271e+003,2.710432e+005
1.238128e+003,2.719595e+005
1.241985e+003,2.742232e+005
1.245842e+003,2.597663e+005
1.249699e+003,2.552645e+005
1.253556e+003,2.688585e+005
1.257413e+003,2.718046e+005
1.261271e+003,2.826537e+005
1.265128e+003,2.943700e+005
1.268985e+003,2.842026e+005
1.272842e+003,2.632813e+005
1.276699e+003,2.713453e+005
1.280556e+003,2.779788e+005
1.284413e+003,2.640104e+005
1.288270e+003,2.545323e+005
1.292127e+003,2.497279e+005
1.295984e+003,2.456467e+005
1.299841e+003,2.451420e+005
1.303698e+003,2.551319e+005
1.307556e+003,2.494217e+005
1.311413e+003,2.321954e+005
1.315270e+003,2.257423e+005
1.319127e+003,2.171895e+005
1.322984e+003,2.017154e+005
1.326841e+003,1.981967e+005
1.330698e+003,2.061293e+005
1.334555e+003,2.035360e+005
1.338412e+003,1.921479e+005
1.342270e+003,1.999963e+005
1.346127e+003,2.085882e+005
1.349984e+003,2.021169e+005
1.353841e+003,1.969630e+005
1.357698e+003,2.013353e+005
1.361555e+003,1.988057e+005
1.365412e+003,1.855841e+005
1.369269e+003,1.859565e+005
1.373126e+003,1.940945e+005
1.376983e+003,1.918684e+005
1.380840e+003,1.856688e+005
1.384698e+003,1.856848e+005
1.388555e+003,1.860130e+005
1.392412e+003,1.813503e+005
1.396269e+003,1.799899e+005
1.400126e+003,1.837808e+005
1.403983e+003,1.916601e+005
1.407840e+003,1.867034e+005
1.411697e+003,1.732907e+005
1.415554e+003,1.691792e+005
1.419411e+003,1.663179e+005
1.423269e+003,1.661871e+005
1.427125e+003,1.683861e+005
1.430983e+003,1.715179e+005
1.434840e+003,1.754799e+005
1.438697e+003,1.810912e+005
1.442554e+003,1.839426e+005
1.446411e+003,1.793840e+005
1.450268e+003,1.749253e+005
1.454125e+003,1.622705e+005
1.457982e+003,1.581407e+005
1.461839e+003,1.682939e+005
1.465697e+003,1.699851e+005
1.469554e+003,1.711339e+005
1.473411e+003,1.635374e+005
1.477268e+003,1.544154e+005
1.481125e+003,1.581735e+005
1.484982e+003,1.570347e+005
1.488839e+003,1.513510e+005
1.492696e+003,1.511880e+005
1.496553e+003,1.460999e+005
1.500410e+003,1.452442e+005
1.504268e+003,1.484975e+005
1.508125e+003,1.521985e+005
1.511982e+003,1.638990e+005
1.515839e+003,1.648215e+005
1.519696e+003,1.574968e+005
1.523553e+003,1.465504e+005
1.527410e+003,1.495461e+005
1.531267e+003,1.514799e+005
1.535124e+003,1.476260e+005
1.538981e+003,1.377640e+005
1.542838e+003,1.309817e+005
1.546696e+003,1.429833e+005
1.550553e+003,1.518829e+005
1.554410e+003,1.622766e+005
1.558267e+003,1.699787e+005
1.562124e+003,1.653583e+005
1.565981e+003,1.638590e+005
1.569838e+003,1.659326e+005
1.573695e+003,1.714688e+005
1.577552e+003,1.701187e+005
1.581409e+003,1.743568e+005
1.585267e+003,1.774432e+005
1.589124e+003,1.796294e+005
1.592981e+003,1.777008e+005
1.596838e+003,1.769401e+005
1.600695e+003,1.703530e+005
1.604552e+003,1.653669e+005
1.608409e+003,1.678726e+005
1.612266e+003,1.742203e+005
1.616123e+003,1.769243e+005
1.619980e+003,1.863081e+005
1.623837e+003,1.879001e+005
1.627695e+003,1.831081e+005
1.631552e+003,1.850291e+005
1.635409e+003,1.924164e+005
1.639266e+003,1.779958e+005
1.643123e+003,1.724342e+005
1.646980e+003,1.697983e+005
1.650837e+003,1.742340e+005
1.654694e+003,1.851964e+005
1.658551e+003,1.763890e+005
1.662408e+003,1.631099e+005
1.666266e+003,1.638866e+005
1.670123e+003,1.662884e+005
1.673980e+003,1.605377e+005
1.677837e+003,1.545010e+005
1.681694e+003,1.496057e+005
1.685551e+003,1.474551e+005
1.689408e+003,1.549331e+005
1.693265e+003,1.591919e+005
1.697122e+003,1.654267e+005
1.700979e+003,1.577901e+005
1.704837e+003,1.505435e+005
1.708694e+003,1.503645e+005
1.712551e+003,1.491786e+005
1.716408e+003,1.387277e+005
1.720265e+003,1.407625e+005
1.724122e+003,1.480508e+005
1.727979e+003,1.545399e+005
1.731836e+003,1.531558e+005
1.735693e+003,1.465150e+005
1.739550e+003,1.442201e+005
1.743407e+003,1.406192e+005
1.747265e+003,1.327636e+005
1.751122e+003,1.303517e+005
1.754979e+003,1.366670e+005
1.758836e+003,1.411515e+005
1.762693e+003,1.359706e+005
1.766550e+003,1.282022e+005
1.770407e+003,1.245303e+005
1.774264e+003,1.314491e+005
1.778121e+003,1.342161e+005
1.781978e+003,1.280673e+005
1.785836e+003,1.280485e+005
1.789693e+003,1.310305e+005
1.793550e+003,1.289836e+005
1.797407e+003,1.299321e+005
1.801264e+003,1.312529e+005
1.805121e+003,1.307409e+005
1.808978e+003,1.274905e+005
1.812835e+003,1.252040e+005
1.816692e+003,1.252323e+005
1.820549e+003,1.240114e+005
1.824406e+003,1.205989e+005
1.828264e+003,1.198047e+005
1.832121e+003,1.207684e+005
1.835978e+003,1.203354e+005
1.839835e+003,1.186818e+005
1.843692e+003,1.190643e+005
1.847549e+003,1.196908e+005
1.851406e+003,1.204243e+005
1.855263e+003,1.216918e+005
1.859120e+003,1.232175e+005
1.862977e+003,1.246859e+005
1.866835e+003,1.230648e+005
1.870692e+003,1.230421e+005
1.874549e+003,1.264734e+005
1.878406e+003,1.277333e+005
1.882263e+003,1.269895e+005
1.886120e+003,1.235530e+005
1.889977e+003,1.228818e+005
1.893834e+003,1.223800e+005
1.897691e+003,1.234282e+005
1.901548e+003,1.258891e+005
1.905406e+003,1.265050e+005
1.909263e+003,1.223642e+005
1.913120e+003,1.210950e+005
1.916977e+003,1.234774e+005
1.920834e+003,1.270126e+005
1.924691e+003,1.280421e+005
1.928548e+003,1.281605e+005
1.932405e+003,1.253300e+005
1.936262e+003,1.264399e+005
1.940119e+003,1.238748e+005
1.943976e+003,1.180592e+005
1.947834e+003,1.162058e+005
1.951691e+003,1.184039e+005
1.955548e+003,1.217256e+005
1.959405e+003,1.203457e+005
1.963262e+003,1.191757e+005
1.967119e+003,1.202965e+005
1.970976e+003,1.191023e+005
1.974833e+003,1.194354e+005
1.978690e+003,1.219040e+005
1.982547e+003,1.185378e+005
1.986405e+003,1.132655e+005
1.990262e+003,1.129121e+005
1.994119e+003,1.136005e+005
1.997976e+003,1.140581e+005
2.001833e+003,1.146917e+005
2.005690e+003,1.154936e+005
2.009547e+003,1.163792e+005
2.013404e+003,1.160855e+005
2.017261e+003,1.146734e+005
2.021118e+003,1.152429e+005
2.024975e+003,1.142344e+005
2.028833e+003,1.136147e+005
2.032690e+003,1.120910e+005
2.036547e+003,1.110955e+005
2.040404e+003,1.090273e+005
2.044261e+003,1.082889e+005
2.048118e+003,1.116823e+005
2.051975e+003,1.132431e+005
2.055832e+003,1.120425e+005
2.059689e+003,1.125079e+005
2.063546e+003,1.098686e+005
2.067404e+003,1.089721e+005
2.071261e+003,1.101520e+005
2.075118e+003,1.109134e+005
2.078975e+003,1.093492e+005
2.082832e+003,1.053103e+005
2.086689e+003,1.028111e+005
2.090546e+003,1.065068e+005
2.094403e+003,1.110991e+005
2.098260e+003,1.117049e+005
2.102117e+003,1.103264e+005
2.105975e+003,1.090988e+005
2.109832e+003,1.075487e+005
2.113689e+003,1.085519e+005
2.117546e+003,1.093121e+005
2.121403e+003,1.095083e+005
2.125260e+003,1.071688e+005
2.129117e+003,1.038627e+005
2.132974e+003,1.033584e+005
2.136831e+003,1.028114e+005
2.140688e+003,1.009919e+005
2.144545e+003,1.008010e+005
2.148403e+003,1.003560e+005
2.152260e+003,1.005173e+005
2.156117e+003,1.024656e+005
2.159974e+003,1.020529e+005
2.163831e+003,1.003295e+005
2.167688e+003,1.012809e+005
2.171545e+003,1.015952e+005
2.175402e+003,9.872133e+004
2.179259e+003,9.719352e+004
2.183116e+003,9.714193e+004
2.186974e+003,9.698048e+004
2.190831e+003,9.666225e+004
2.194688e+003,9.564580e+004
2.198545e+003,9.559604e+004
2.202402e+003,9.506740e+004
2.206259e+003,9.456391e+004
2.210116e+003,9.506005e+004
2.213973e+003,9.369325e+004
2.217830e+003,9.294269e+004
2.221688e+003,9.376483e+004
2.225544e+003,9.361638e+004
2.229402e+003,9.373534e+004
2.233259e+003,9.280625e+004
2.237116e+003,9.091640e+004
2.240973e+003,9.049076e+004
2.244830e+003,9.031963e+004
2.248687e+003,8.836063e+004
2.252544e+003,8.727279e+004
2.256401e+003,8.816574e+004
2.260258e+003,8.803501e+004
2.264115e+003,8.560548e+004
2.267973e+003,8.467633e+004
2.271830e+003,8.332516e+004
2.275687e+003,8.197259e+004
2.279544e+003,8.145290e+004
2.283401e+003,7.957862e+004
2.287258e+003,7.701051e+004
2.291115e+003,7.596634e+004
2.294972e+003,7.553203e+004
2.298829e+003,7.372569e+004
2.302687e+003,7.153077e+004
2.306543e+003,6.951884e+004
2.310401e+003,6.729627e+004
2.314258e+003,6.493321e+004
2.318115e+003,6.245021e+004
2.321972e+003,6.029871e+004
2.325829e+003,5.754892e+004
2.329686e+003,5.711587e+004
2.333543e+003,5.926259e+004
2.337400e+003,5.841608e+004
2.341257e+003,5.438258e+004
2.345115e+003,5.120192e+004
2.348972e+003,5.098532e+004
2.352829e+003,5.228491e+004
2.356686e+003,5.017211e+004
2.360543e+003,4.442419e+004
2.364400e+003,4.359513e+004
2.368257e+003,4.450628e+004
2.372114e+003,4.408738e+004
2.375971e+003,4.392385e+004
2.379828e+003,4.325591e+004
2.383686e+003,4.255780e+004
2.387542e+003,4.212976e+004
2.391400e+003,4.142498e+004
2.395257e+003,4.026008e+004
2.399114e+003,3.901750e+004
2.402971e+003,3.816697e+004
2.406828e+003,3.734025e+004
2.410685e+003,3.653692e+004
2.414542e+003,3.583577e+004
2.418399e+003,3.512487e+004
2.422256e+003,3.439748e+004
2.426114e+003,3.369909e+004
2.429971e+003,3.285927e+004
2.433828e+003,3.203688e+004
2.437685e+003,3.144720e+004
2.441542e+003,3.102298e+004
2.445399e+003,3.048708e+004
2.449256e+003,2.976970e+004
2.453113e+003,2.913153e+004
2.456970e+003,2.852115e+004
2.460827e+003,2.804914e+004
2.464685e+003,2.770598e+004
2.468542e+003,2.732202e+004
2.472399e+003,2.702318e+004
2.476256e+003,2.675348e+004
2.480113e+003,2.630427e+004
2.483970e+003,2.581849e+004
2.487827e+003,2.547704e+004
2.491684e+003,2.520231e+004
2.495541e+003,2.502225e+004
2.499398e+003,2.481757e+004
2.503255e+003,2.457892e+004
2.507113e+003,2.439121e+004
2.510970e+003,2.428154e+004
2.514827e+003,2.411128e+004
2.518684e+003,2.389894e+004
2.522541e+003,2.368652e+004
2.526398e+003,2.357415e+004
2.530255e+003,2.348220e+004
2.534112e+003,2.342140e+004
2.537969e+003,2.340601e+004
2.541826e+003,2.331769e+004
2.545684e+003,2.326691e+004
2.549541e+003,2.329365e+004
2.553398e+003,2.325947e+004
2.557255e+003,2.315201e+004
2.561112e+003,2.304825e+004
2.564969e+003,2.310162e+004
2.568826e+003,2.313475e+004
2.572683e+003,2.313330e+004
2.576540e+003,2.308379e+004
2.580397e+003,2.307607e+004
2.584254e+003,2.308538e+004
2.588112e+003,2.313960e+004
2.591969e+003,2.321450e+004
2.595826e+003,2.331267e+004
2.599683e+003,2.336508e+004
2.603540e+003,2.344423e+004
2.607397e+003,2.347743e+004
2.611254e+003,2.348318e+004
2.615111e+003,2.358187e+004
2.618968e+003,2.368065e+004
2.622825e+003,2.385601e+004
2.626683e+003,2.400849e+004
2.630540e+003,2.401771e+004
2.634397e+003,2.395475e+004
2.638254e+003,2.409323e+004
2.642111e+003,2.416065e+004
2.645968e+003,2.408529e+004
2.649825e+003,2.403747e+004
2.653682e+003,2.408145e+004
2.657539e+003,2.411887e+004
2.661396e+003,2.412945e+004
2.665253e+003,2.427104e+004
2.669111e+003,2.439403e+004
2.672968e+003,2.448561e+004
2.676825e+003,2.466422e+004
2.680682e+003,2.468660e+004
2.684539e+003,2.466386e+004
2.688396e+003,2.464738e+004
2.692253e+003,2.472869e+004
2.696110e+003,2.485402e+004
2.699967e+003,2.496234e+004
2.703824e+003,2.505583e+004
2.707682e+003,2.513309e+004
2.711539e+003,2.536272e+004
2.715396e+003,2.554455e+004
2.719253e+003,2.555928e+004
2.723110e+003,2.545034e+004
2.726967e+003,2.540060e+004
2.730824e+003,2.552726e+004
2.734681e+003,2.558770e+004
2.738538e+003,2.554314e+004
2.742396e+003,2.554245e+004
2.746252e+003,2.556553e+004
2.750109e+003,2.567352e+004
2.753967e+003,2.578831e+004
2.757824e+003,2.583529e+004
2.761681e+003,2.582040e+004
2.765538e+003,2.600209e+004
2.769395e+003,2.610628e+004
2.773252e+003,2.598102e+004
2.777109e+003,2.581588e+004
2.780966e+003,2.588178e+004
2.784823e+003,2.595121e+004
2.788681e+003,2.594940e+004
2.792538e+003,2.592586e+004
2.796395e+003,2.596194e+004
2.800252e+003,2.601830e+004
2.804109e+003,2.595945e+004
2.807966e+003,2.612913e+004
2.811823e+003,2.630469e+004
2.815680e+003,2.623030e+004
2.819537e+003,2.617466e+004
2.823395e+003,2.622984e+004
2.827251e+003,2.641641e+004
2.831108e+003,2.655779e+004
2.834966e+003,2.644109e+004
2.838823e+003,2.632798e+004
2.842680e+003,2.626221e+004
2.846537e+003,2.622897e+004
2.850394e+003,2.634458e+004
2.854251e+003,2.641792e+004
2.858108e+003,2.633093e+004
2.861965e+003,2.620245e+004
2.865822e+003,2.627186e+004
2.869680e+003,2.621895e+004
2.873537e+003,2.597491e+004
2.877394e+003,2.585799e+004
2.881251e+003,2.586296e+004
2.885108e+003,2.594748e+004
2.888965e+003,2.596624e+004
2.892822e+003,2.586665e+004
2.896679e+003,2.582231e+004
2.900536e+003,2.587090e+004
2.904394e+003,2.585179e+004
2.908250e+003,2.579275e+004
2.912107e+003,2.562648e+004
2.915965e+003,2.559446e+004
2.919822e+003,2.569467e+004
2.923679e+003,2.563365e+004
2.927536e+003,2.557894e+004
2.931393e+003,2.549756e+004
2.935250e+003,2.532742e+004
2.939107e+003,2.506762e+004
2.942964e+003,2.486057e+004
2.946821e+003,2.473920e+004
2.950679e+003,2.470516e+004
2.954536e+003,2.464495e+004
2.958393e+003,2.445354e+004
2.962250e+003,2.432314e+004
2.966107e+003,2.426698e+004
2.969964e+003,2.411037e+004
2.973821e+003,2.392582e+004
2.977678e+003,2.387455e+004
2.981535e+003,2.384550e+004
2.985393e+003,2.363367e+004
2.989250e+003,2.344139e+004
2.993106e+003,2.335863e+004
2.996964e+003,2.318072e+004
3.000821e+003,2.300378e+004
3.004678e+003,2.296990e+004
3.008535e+003,2.308078e+004
3.012392e+003,2.304518e+004
3.016249e+003,2.283568e+004
3.020106e+003,2.273812e+004
3.023963e+003,2.268123e+004
3.027820e+003,2.246330e+004
3.031678e+003,2.217570e+004
3.035535e+003,2.207736e+004
3.039392e+003,2.207092e+004
3.043249e+003,2.200971e+004
3.047106e+003,2.191896e+004
3.050963e+003,2.170648e+004
3.054820e+003,2.156261e+004
3.058677e+003,2.148675e+004
3.062534e+003,2.148609e+004
3.066392e+003,2.139940e+004
3.070249e+003,2.132574e+004
3.074105e+003,2.125929e+004
3.077963e+003,2.111337e+004
3.081820e+003,2.109885e+004
3.085677e+003,2.097280e+004
3.089534e+003,2.077329e+004
3.093391e+003,2.067156e+004
3.097248e+003,2.046436e+004
3.101105e+003,2.029312e+004
3.104962e+003,2.017600e+004
3.108819e+003,2.023009e+004
3.112677e+003,2.017484e+004
3.116534e+003,1.982273e+004
3.120391e+003,1.966171e+004
3.124248e+003,1.976597e+004
3.128105e+003,1.970640e+004
3.131962e+003,1.942995e+004
3.135819e+003,1.923197e+004
3.139676e+003,1.918526e+004
3.143533e+003,1.914164e+004
3.147391e+003,1.906839e+004
3.151248e+003,1.892990e+004
3.155104e+003,1.878050e+004
3.158962e+003,1.871372e+004
3.162819e+003,1.869537e+004
3.166676e+003,1.868019e+004
3.170533e+003,1.865396e+004
3.174390e+003,1.854094e+004
3.178247e+003,1.842315e+004
3.182104e+003,1.832401e+004
3.185961e+003,1.820741e+004
3.189818e+003,1.822627e+004
3.193676e+003,1.831145e+004
3.197533e+003,1.820116e+004
3.201390e+003,1.810431e+004
3.205247e+003,1.810790e+004
3.209104e+003,1.806621e+004
3.212961e+003,1.794778e+004
3.216818e+003,1.788268e+004
3.220675e+003,1.780666e+004
3.224532e+003,1.778754e+004
3.228390e+003,1.773113e+004
3.232247e+003,1.760354e+004
3.236104e+003,1.761821e+004
3.239961e+003,1.766308e+004
3.243818e+003,1.762661e+004
3.247675e+003,1.755897e+004
3.251532e+003,1.757459e+004
3.255389e+003,1.770489e+004
3.259246e+003,1.767532e+004
3.263104e+003,1.758563e+004
3.266960e+003,1.756070e+004
3.270817e+003,1.758200e+004
3.274675e+003,1.761981e+004
3.278532e+003,1.763849e+004
3.282389e+003,1.757002e+004
3.286246e+003,1.757111e+004
3.290103e+003,1.760401e+004
3.293960e+003,1.758641e+004
3.297817e+003,1.764240e+004
3.301674e+003,1.772416e+004
3.305531e+003,1.770783e+004
3.309389e+003,1.769777e+004
3.313246e+003,1.776932e+004
3.317103e+003,1.796053e+004
3.320960e+003,1.801709e+004
3.324817e+003,1.800346e+004
3.328674e+003,1.802038e+004
3.332531e+003,1.812125e+004
3.336388e+003,1.817453e+004
3.340245e+003,1.819873e+004
3.344103e+003,1.829385e+004
3.347959e+003,1.844617e+004
3.351816e+003,1.852475e+004
3.355674e+003,1.850031e+004
3.359531e+003,1.846075e+004
3.363388e+003,1.861571e+004
3.367245e+003,1.882575e+004
3.371102e+003,1.892136e+004
3.374959e+003,1.889235e+004
3.378816e+003,1.893077e+004
3.382673e+003,1.903590e+004
3.386530e+003,1.919830e+004
3.390388e+003,1.931399e+004
3.394245e+003,1.942270e+004
3.398102e+003,1.942591e+004
3.401959e+003,1.936797e+004
3.405816e+003,1.945817e+004
3.409673e+003,1.965544e+004
3.413530e+003,1.972982e+004
3.417387e+003,1.988888e+004
3.421244e+003,1.996169e+004
3.425102e+003,2.001008e+004
3.428958e+003,2.005762e+004
3.432815e+003,2.008902e+004
3.436673e+003,2.011773e+004
3.440530e+003,2.029632e+004
3.444387e+003,2.028013e+004
3.448244e+003,2.019033e+004
3.452101e+003,2.029066e+004
3.455958e+003,2.050312e+004
3.459815e+003,2.051051e+004
3.463672e+003,2.059994e+004
3.467529e+003,2.069679e+004
3.471387e+003,2.076983e+004
3.475244e+003,2.083689e+004
3.479101e+003,2.087166e+004
3.482958e+003,2.068299e+004
3.486815e+003,2.072462e+004
3.490672e+003,2.082520e+004
3.494529e+003,2.083513e+004
3.498386e+003,2.073085e+004
3.502243e+003,2.075618e+004
3.506101e+003,2.076078e+004
3.509958e+003,2.068289e+004
3.513814e+003,2.056499e+004
3.517672e+003,2.054485e+004
3.521529e+003,2.047866e+004
3.525386e+003,2.036822e+004
3.529243e+003,2.026718e+004
3.533100e+003,2.036015e+004
3.536957e+003,2.032323e+004
3.540814e+003,2.023036e+004
3.544671e+003,1.993684e+004
3.548528e+003,1.977013e+004
3.552386e+003,1.973212e+004
3.556243e+003,1.965711e+004
3.560100e+003,1.932469e+004
3.563957e+003,1.899371e+004
3.567814e+003,1.836667e+004
3.571671e+003,1.813976e+004
3.575528e+003,1.801864e+004
3.579385e+003,1.783257e+004
3.583242e+003,1.760886e+004
3.587100e+003,1.705805e+004
3.590957e+003,1.657806e+004
3.594813e+003,1.621489e+004
3.598671e+003,1.541290e+004
3.602528e+003,1.494426e+004
3.606385e+003,1.456914e+004
3.610242e+003,1.390553e+004
3.614099e+003,1.323637e+004
3.617956e+003,1.251373e+004
3.621813e+003,1.172349e+004
3.625670e+003,1.131056e+004
3.629527e+003,1.036527e+004
3.633385e+003,9.574715e+003
3.637242e+003,9.054857e+003
3.641099e+003,8.526946e+003
3.644956e+003,8.104289e+003
3.648813e+003,7.270047e+003
3.652670e+003,6.485368e+003
3.656527e+003,6.120112e+003
3.660384e+003,5.705914e+003
3.664241e+003,5.441344e+003
3.668099e+003,5.152322e+003
3.671956e+003,4.766585e+003
3.675813e+003,4.347561e+003
3.679670e+003,4.066861e+003
3.683527e+003,3.983790e+003
3.687384e+003,3.865519e+003
3.691241e+003,3.584141e+003
3.695098e+003,3.479647e+003
3.698955e+003,3.431954e+003
3.702813e+003,3.343269e+003
3.706669e+003,3.310997e+003
3.710526e+003,3.250895e+003
3.714384e+003,3.153185e+003
3.718241e+003,3.165322e+003
3.722098e+003,3.143394e+003
3.725955e+003,3.092754e+003
3.729812e+003,3.100833e+003
3.733669e+003,3.101464e+003
3.737526e+003,3.020456e+003
3.741383e+003,3.044501e+003
3.745240e+003,3.048410e+003
3.749098e+003,3.005426e+003
3.752955e+003,2.947321e+003
3.756812e+003,2.957148e+003
3.760669e+003,2.954210e+003
3.764526e+003,2.963953e+003
3.768383e+003,2.946376e+003
3.772240e+003,2.920804e+003
3.776097e+003,2.935468e+003
3.779954e+003,2.930118e+003
3.783812e+003,2.909583e+003
3.787668e+003,2.904501e+003
3.791525e+003,2.915196e+003
3.795383e+003,2.937659e+003
3.799240e+003,2.929216e+003
3.803097e+003,2.887868e+003
3.806954e+003,2.858757e+003
3.810811e+003,2.882764e+003
3.814668e+003,2.922385e+003
3.818525e+003,2.910878e+003
3.822382e+003,2.858696e+003
3.826239e+003,2.857912e+003
3.830097e+003,2.883402e+003
3.833954e+003,2.911667e+003
3.837811e+003,2.889645e+003
3.841668e+003,2.830314e+003
3.845525e+003,2.845697e+003
3.849382e+003,2.909744e+003
3.853239e+003,2.880709e+003
3.857096e+003,2.818227e+003
3.860953e+003,2.863381e+003
3.864811e+003,2.871380e+003
3.868667e+003,2.856094e+003
3.872524e+003,2.825585e+003
3.876382e+003,2.837231e+003
3.880239e+003,2.859466e+003
3.884096e+003,2.843566e+003
3.887953e+003,2.841066e+003
3.891810e+003,2.834510e+003
3.895667e+003,2.849053e+003
3.899524e+003,2.871666e+003
3.903381e+003,2.812602e+003
3.907238e+003,2.787955e+003
3.911096e+003,2.823423e+003
3.914953e+003,2.846269e+003
3.918810e+003,2.827042e+003
3.922667e+003,2.814558e+003
3.926524e+003,2.819738e+003
3.930381e+003,2.822995e+003
3.934238e+003,2.807934e+003
3.938095e+003,2.813614e+003
3.941952e+003,2.817011e+003
3.945810e+003,2.809880e+003
3.949667e+003,2.803463e+003
3.953523e+003,2.802219e+003
3.957381e+003,2.809096e+003
3.961238e+003,2.806834e+003
3.965095e+003,2.804226e+003
3.968952e+003,2.802493e+003
3.972809e+003,2.795816e+003
3.976666e+003,2.790940e+003
3.980523e+003,2.790120e+003
3.984380e+003,2.788212e+003
3.988237e+003,2.790593e+003
3.992095e+003,2.789453e+003
3.995952e+003,2.784741e+003
3.999809e+003,2.782914e+003
